Dist(m),Left,Right,Elbow,TOF
1.50,60.00,40.00,0.136100,0.052500
1.51,60.05,40.00,0.135809,0.053122
1.52,60.10,40.00,0.135506,0.053747
1.53,60.15,40.00,0.135191,0.054376
1.54,60.21,40.00,0.134867,0.055009
1.55,60.26,40.00,0.134532,0.055645
1.56,60.31,40.00,0.134187,0.056285
1.57,60.36,40.00,0.133834,0.056928
1.58,60.41,40.00,0.133472,0.057575
1.59,60.46,40.00,0.133102,0.058226
1.60,60.51,40.00,0.132725,0.058880
1.61,60.56,40.00,0.132341,0.059538
1.62,60.62,40.00,0.131950,0.060199
1.63,60.67,40.00,0.131553,0.060864
1.64,60.72,40.00,0.131150,0.061533
1.65,60.77,40.00,0.130742,0.062205
1.66,60.82,40.00,0.130329,0.062881
1.67,60.87,40.00,0.129912,0.063560
1.68,60.92,40.00,0.129491,0.064243
1.69,60.97,40.00,0.129065,0.064930
1.70,61.03,40.00,0.128637,0.065620
1.71,61.08,40.00,0.128205,0.066314
1.72,61.13,40.00,0.127771,0.067011
1.73,61.18,40.00,0.127334,0.067712
1.74,61.23,40.00,0.126895,0.068417
1.75,61.28,40.00,0.126454,0.069125
1.76,61.33,40.00,0.126012,0.069837
1.77,61.38,40.00,0.125569,0.070552
1.78,61.44,40.00,0.125124,0.071271
1.79,61.49,40.00,0.124679,0.071994
1.80,61.54,40.00,0.124234,0.072720
1.81,61.59,40.00,0.123788,0.073450
1.82,61.64,40.00,0.123343,0.074183
1.83,61.69,40.00,0.122897,0.074920
1.84,61.74,40.00,0.122453,0.075661
1.85,61.79,40.00,0.122008,0.076405
1.86,61.85,40.00,0.121565,0.077153
1.87,61.90,40.00,0.121123,0.077904
1.88,61.95,40.00,0.120682,0.078659
1.89,62.00,40.00,0.120242,0.079418
1.90,62.05,40.00,0.119804,0.080180
1.91,62.10,40.00,0.119368,0.080946
1.92,62.15,40.00,0.118934,0.081715
1.93,62.21,40.00,0.118501,0.082488
1.94,62.26,40.00,0.118071,0.083265
1.95,62.31,40.00,0.117643,0.084045
1.96,62.36,40.00,0.117218,0.084829
1.97,62.41,40.00,0.116795,0.085616
1.98,62.46,40.00,0.116374,0.086407
1.99,62.51,40.00,0.115957,0.087202
2.00,62.56,40.00,0.115542,0.088000
2.01,62.62,40.00,0.115131,0.088802
2.02,62.67,40.00,0.114722,0.089607
2.03,62.72,40.00,0.114316,0.090416
2.04,62.77,40.00,0.113914,0.091229
2.05,62.82,40.00,0.113515,0.092045
2.06,62.87,40.00,0.113119,0.092865
2.07,62.92,40.00,0.112726,0.093688
2.08,62.97,40.00,0.112337,0.094515
2.09,63.03,40.00,0.111952,0.095346
2.10,63.08,40.00,0.111570,0.096180
2.11,63.13,40.00,0.111192,0.097018
2.12,63.18,40.00,0.110817,0.097859
2.13,63.23,40.00,0.110446,0.098704
2.14,63.28,40.00,0.110078,0.099553
2.15,63.33,40.00,0.109715,0.100405
2.16,63.38,40.00,0.109354,0.101261
2.17,63.44,40.00,0.108998,0.102120
2.18,63.49,40.00,0.108646,0.102983
2.19,63.54,40.00,0.108297,0.103850
2.20,63.59,40.00,0.107952,0.104720
2.21,63.64,40.00,0.107611,0.105594
2.22,63.69,40.00,0.107274,0.106471
2.23,63.74,40.00,0.106940,0.107352
2.24,63.79,40.00,0.106610,0.108237
2.25,63.85,40.00,0.106284,0.109125
2.26,63.90,40.00,0.105962,0.110017
2.27,63.95,40.00,0.105643,0.110912
2.28,64.00,40.00,0.105329,0.111811
2.29,64.05,40.00,0.105017,0.112714
2.30,64.10,40.00,0.104710,0.113620
2.31,64.15,40.00,0.104406,0.114530
2.32,64.21,40.00,0.104106,0.115443
2.33,64.26,40.00,0.103810,0.116360
2.34,64.31,40.00,0.103517,0.117281
2.35,64.36,40.00,0.103228,0.118205
2.36,64.41,40.00,0.102943,0.119133
2.37,64.46,40.00,0.102660,0.120064
2.38,64.51,40.00,0.102382,0.120999
2.39,64.56,40.00,0.102107,0.121938
2.40,64.62,40.00,0.101835,0.122880
2.41,64.67,40.00,0.101567,0.123826
2.42,64.72,40.00,0.101301,0.124775
2.43,64.77,40.00,0.101040,0.125728
2.44,64.82,40.00,0.100781,0.126685
2.45,64.87,40.00,0.100526,0.127645
2.46,64.92,40.00,0.100274,0.128609
2.47,64.97,40.00,0.100025,0.129576
2.48,65.03,40.00,0.099779,0.130547
2.49,65.08,40.00,0.099536,0.131522
2.50,65.13,40.00,0.099296,0.132500
2.51,65.18,40.00,0.099059,0.133482
2.52,65.23,40.00,0.098825,0.134467
2.53,65.28,40.00,0.098594,0.135456
2.54,65.33,40.00,0.098365,0.136449
2.55,65.38,40.00,0.098140,0.137445
2.56,65.44,40.00,0.097917,0.138445
2.57,65.49,40.00,0.097696,0.139448
2.58,65.54,40.00,0.097479,0.140455
2.59,65.59,40.00,0.097263,0.141466
2.60,65.64,40.00,0.097051,0.142480
2.61,65.69,40.00,0.096840,0.143498
2.62,65.74,40.00,0.096633,0.144519
2.63,65.79,40.00,0.096427,0.145544
2.64,65.85,40.00,0.096224,0.146573
2.65,65.90,40.00,0.096023,0.147605
2.66,65.95,40.00,0.095824,0.148641
2.67,66.00,40.00,0.095628,0.149680
2.68,66.05,40.00,0.095433,0.150723
2.69,66.10,40.00,0.095241,0.151770
2.70,66.15,40.00,0.095050,0.152820
2.71,66.21,40.00,0.094862,0.153874
2.72,66.26,40.00,0.094675,0.154931
2.73,66.31,40.00,0.094490,0.155992
2.74,66.36,40.00,0.094307,0.157057
2.75,66.41,40.00,0.094126,0.158125
2.76,66.46,40.00,0.093947,0.159197
2.77,66.51,40.00,0.093769,0.160272
2.78,66.56,40.00,0.093593,0.161351
2.79,66.62,40.00,0.093418,0.162434
2.80,66.67,40.00,0.093245,0.163520
2.81,66.72,40.00,0.093073,0.164610
2.82,66.77,40.00,0.092903,0.165703
2.83,66.82,40.00,0.092734,0.166800
2.84,66.87,40.00,0.092567,0.167901
2.85,66.92,40.00,0.092401,0.169005
2.86,66.97,40.00,0.092236,0.170113
2.87,67.03,40.00,0.092073,0.171224
2.88,67.08,40.00,0.091910,0.172339
2.89,67.13,40.00,0.091749,0.173458
2.90,67.18,40.00,0.091589,0.174580
2.91,67.23,40.00,0.091430,0.175706
2.92,67.28,40.00,0.091272,0.176835
2.93,67.33,40.00,0.091115,0.177968
2.94,67.38,40.00,0.090959,0.179105
2.95,67.44,40.00,0.090805,0.180245
2.96,67.49,40.00,0.090650,0.181389
2.97,67.54,40.00,0.090497,0.182536
2.98,67.59,40.00,0.090345,0.183687
2.99,67.64,40.00,0.090194,0.184842
3.00,67.69,40.00,0.090043,0.186000
3.01,67.74,40.00,0.089893,0.187162
3.02,67.79,40.00,0.089744,0.188327
3.03,67.85,40.00,0.089595,0.189496
3.04,67.90,40.00,0.089447,0.190669
3.05,67.95,40.00,0.089300,0.191845
3.06,68.00,40.00,0.089154,0.193025
3.07,68.05,40.00,0.089008,0.194208
3.08,68.10,40.00,0.088863,0.195395
3.09,68.15,40.00,0.088718,0.196586
3.10,68.21,40.00,0.088574,0.197780
3.11,68.26,40.00,0.088430,0.198978
3.12,68.31,40.00,0.088287,0.200179
3.13,68.36,40.00,0.088144,0.201384
3.14,68.41,40.00,0.088002,0.202593
3.15,68.46,40.00,0.087860,0.203805
3.16,68.51,40.00,0.087719,0.205021
3.17,68.56,40.00,0.087578,0.206240
3.18,68.62,40.00,0.087438,0.207463
3.19,68.67,40.00,0.087298,0.208690
3.20,68.72,40.00,0.087158,0.209920
3.21,68.77,40.00,0.087019,0.211154
3.22,68.82,40.00,0.086880,0.212391
3.23,68.87,40.00,0.086741,0.213632
3.24,68.92,40.00,0.086603,0.214877
3.25,68.97,40.00,0.086465,0.216125
3.26,69.03,40.00,0.086327,0.217377
3.27,69.08,40.00,0.086190,0.218632
3.28,69.13,40.00,0.086053,0.219891
3.29,69.18,40.00,0.085916,0.221154
3.30,69.23,40.00,0.085780,0.222420
3.31,69.28,40.00,0.085644,0.223690
3.32,69.33,40.00,0.085508,0.224963
3.33,69.38,40.00,0.085373,0.226240
3.34,69.44,40.00,0.085237,0.227521
3.35,69.49,40.00,0.085102,0.228805
3.36,69.54,40.00,0.084968,0.230093
3.37,69.59,40.00,0.084833,0.231384
3.38,69.64,40.00,0.084699,0.232679
3.39,69.69,40.00,0.084566,0.233978
3.40,69.74,40.00,0.084432,0.235280
3.41,69.79,40.00,0.084299,0.236586
3.42,69.85,40.00,0.084166,0.237895
3.43,69.90,40.00,0.084033,0.239208
3.44,69.95,40.00,0.083901,0.240525
3.45,70.00,40.00,0.083769,0.241845
3.46,70.05,40.00,0.083637,0.243169
3.47,70.10,40.00,0.083506,0.244496
3.48,70.15,40.00,0.083374,0.245827
3.49,70.21,40.00,0.083244,0.247162
3.50,70.26,40.00,0.083113,0.248500
3.51,70.31,40.00,0.082983,0.249842
3.52,70.36,40.00,0.082853,0.251187
3.53,70.41,40.00,0.082724,0.252536
3.54,70.46,40.00,0.082594,0.253889
3.55,70.51,40.00,0.082466,0.255245
3.56,70.56,40.00,0.082337,0.256605
3.57,70.62,40.00,0.082209,0.257968
3.58,70.67,40.00,0.082081,0.259335
3.59,70.72,40.00,0.081954,0.260706
3.60,70.77,40.00,0.081827,0.262080
3.61,70.82,40.00,0.081700,0.263458
3.62,70.87,40.00,0.081574,0.264839
3.63,70.92,40.00,0.081448,0.266224
3.64,70.97,40.00,0.081323,0.267613
3.65,71.03,40.00,0.081198,0.269005
3.66,71.08,40.00,0.081074,0.270401
3.67,71.13,40.00,0.080950,0.271800
3.68,71.18,40.00,0.080826,0.273203
3.69,71.23,40.00,0.080703,0.274610
3.70,71.28,40.00,0.080580,0.276020
3.71,71.33,40.00,0.080458,0.277434
3.72,71.38,40.00,0.080337,0.278851
3.73,71.44,40.00,0.080215,0.280272
3.74,71.49,40.00,0.080095,0.281697
3.75,71.54,40.00,0.079975,0.283125
3.76,71.59,40.00,0.079855,0.284557
3.77,71.64,40.00,0.079736,0.285992
3.78,71.69,40.00,0.079618,0.287431
3.79,71.74,40.00,0.079500,0.288874
3.80,71.79,40.00,0.079382,0.290320
3.81,71.85,40.00,0.079265,0.291770
3.82,71.90,40.00,0.079149,0.293223
3.83,71.95,40.00,0.079033,0.294680
3.84,72.00,40.00,0.078918,0.296141
3.85,72.05,40.00,0.078804,0.297605
3.86,72.10,40.00,0.078690,0.299073
3.87,72.15,40.00,0.078576,0.300544
3.88,72.21,40.00,0.078464,0.302019
3.89,72.26,40.00,0.078352,0.303498
3.90,72.31,40.00,0.078240,0.304980
3.91,72.36,40.00,0.078129,0.306466
3.92,72.41,40.00,0.078019,0.307955
3.93,72.46,40.00,0.077909,0.309448
3.94,72.51,40.00,0.077800,0.310945
3.95,72.56,40.00,0.077692,0.312445
3.96,72.62,40.00,0.077585,0.313949
3.97,72.67,40.00,0.077478,0.315456
3.98,72.72,40.00,0.077371,0.316967
3.99,72.77,40.00,0.077265,0.318482
4.00,72.82,40.00,0.077160,0.320000
4.01,72.87,40.00,0.077056,0.321522
4.02,72.92,40.00,0.076952,0.323047
4.03,72.97,40.00,0.076849,0.324576
4.04,73.03,40.00,0.076747,0.326109
4.05,73.08,40.00,0.076645,0.327645
4.06,73.13,40.00,0.076544,0.329185
4.07,73.18,40.00,0.076443,0.330728
4.08,73.23,40.00,0.076344,0.332275
4.09,73.28,40.00,0.076244,0.333826
4.10,73.33,40.00,0.076146,0.335380
4.11,73.38,40.00,0.076048,0.336938
4.12,73.44,40.00,0.075951,0.338499
4.13,73.49,40.00,0.075854,0.340064
4.14,73.54,40.00,0.075758,0.341633
4.15,73.59,40.00,0.075663,0.343205
4.16,73.64,40.00,0.075568,0.344781
4.17,73.69,40.00,0.075474,0.346360
4.18,73.74,40.00,0.075381,0.347943
4.19,73.79,40.00,0.075288,0.349530
4.20,73.85,40.00,0.075195,0.351120
4.21,73.90,40.00,0.075104,0.352714
4.22,73.95,40.00,0.075013,0.354311
4.23,74.00,40.00,0.074922,0.355912
4.24,74.05,40.00,0.074832,0.357517
4.25,74.10,40.00,0.074743,0.359125
4.26,74.15,40.00,0.074654,0.360737
4.27,74.21,40.00,0.074566,0.362352
4.28,74.26,40.00,0.074478,0.363971
4.29,74.31,40.00,0.074391,0.365594
4.30,74.36,40.00,0.074304,0.367220
4.31,74.41,40.00,0.074218,0.368850
4.32,74.46,40.00,0.074132,0.370483
4.33,74.51,40.00,0.074047,0.372120
4.34,74.56,40.00,0.073962,0.373761
4.35,74.62,40.00,0.073877,0.375405
4.36,74.67,40.00,0.073794,0.377053
4.37,74.72,40.00,0.073710,0.378704
4.38,74.77,40.00,0.073627,0.380359
4.39,74.82,40.00,0.073544,0.382018
4.40,74.87,40.00,0.073462,0.383680
4.41,74.92,40.00,0.073380,0.385346
4.42,74.97,40.00,0.073299,0.387015
4.43,75.03,40.00,0.073218,0.388688
4.44,75.08,40.00,0.073137,0.390365
4.45,75.13,40.00,0.073057,0.392045
4.46,75.18,40.00,0.072977,0.393729
4.47,75.23,40.00,0.072897,0.395416
4.48,75.28,40.00,0.072818,0.397107
4.49,75.33,40.00,0.072739,0.398802
4.50,75.38,40.00,0.072660,0.400500
4.51,75.44,40.00,0.072581,0.402202
4.52,75.49,40.00,0.072503,0.403907
4.53,75.54,40.00,0.072425,0.405616
4.54,75.59,40.00,0.072348,0.407329
4.55,75.64,40.00,0.072270,0.409045
4.56,75.69,40.00,0.072193,0.410765
4.57,75.74,40.00,0.072116,0.412488
4.58,75.79,40.00,0.072039,0.414215
4.59,75.85,40.00,0.071963,0.415946
4.60,75.90,40.00,0.071887,0.417680
4.61,75.95,40.00,0.071810,0.419418
4.62,76.00,40.00,0.071735,0.421159
4.63,76.05,40.00,0.071659,0.422904
4.64,76.10,40.00,0.071584,0.424653
4.65,76.15,40.00,0.071508,0.426405
4.66,76.21,40.00,0.071433,0.428161
4.67,76.26,40.00,0.071359,0.429920
4.68,76.31,40.00,0.071284,0.431683
4.69,76.36,40.00,0.071210,0.433450
4.70,76.41,40.00,0.071136,0.435220
4.71,76.46,40.00,0.071062,0.436994
4.72,76.51,40.00,0.070989,0.438771
4.73,76.56,40.00,0.070915,0.440552
4.74,76.62,40.00,0.070842,0.442337
4.75,76.67,40.00,0.070770,0.444125
4.76,76.72,40.00,0.070697,0.445917
4.77,76.77,40.00,0.070625,0.447712
4.78,76.82,40.00,0.070553,0.449511
4.79,76.87,40.00,0.070482,0.451314
4.80,76.92,40.00,0.070411,0.453120
4.81,76.97,40.00,0.070341,0.454930
4.82,77.03,40.00,0.070271,0.456743
4.83,77.08,40.00,0.070201,0.458560
4.84,77.13,40.00,0.070132,0.460381
4.85,77.18,40.00,0.070064,0.462205
4.86,77.23,40.00,0.069996,0.464033
4.87,77.28,40.00,0.069929,0.465864
4.88,77.33,40.00,0.069862,0.467699
4.89,77.38,40.00,0.069796,0.469538
4.90,77.44,40.00,0.069731,0.471380
4.91,77.49,40.00,0.069667,0.473226
4.92,77.54,40.00,0.069604,0.475075
4.93,77.59,40.00,0.069542,0.476928
4.94,77.64,40.00,0.069480,0.478785
4.95,77.69,40.00,0.069420,0.480645
4.96,77.74,40.00,0.069361,0.482509
4.97,77.79,40.00,0.069304,0.484376
4.98,77.85,40.00,0.069247,0.486247
4.99,77.90,40.00,0.069192,0.488122
5.00,77.95,40.00,0.069139,0.490000
5.01,78.00,40.00,0.069087,0.491882
5.02,78.05,40.00,0.069037,0.493767
5.03,78.10,40.00,0.068988,0.495656
5.04,78.15,40.00,0.068942,0.497549
5.05,78.21,40.00,0.068898,0.499445
5.06,78.26,40.00,0.068855,0.501345
5.07,78.31,40.00,0.068815,0.503248
5.08,78.36,40.00,0.068778,0.505155
5.09,78.41,40.00,0.068742,0.507066
5.10,78.46,40.00,0.068710,0.508980
5.11,78.51,40.00,0.068680,0.510898
5.12,78.56,40.00,0.068654,0.512819
5.13,78.62,40.00,0.068630,0.514744
5.14,78.67,40.00,0.068610,0.516673
5.15,78.72,40.00,0.068593,0.518605
5.16,78.77,40.00,0.068580,0.520541
5.17,78.82,40.00,0.068570,0.522480
5.18,78.87,40.00,0.068565,0.524423
5.19,78.92,40.00,0.068563,0.526370
5.20,78.97,40.00,0.068566,0.528320
5.21,79.03,40.00,0.068574,0.530274
5.22,79.08,40.00,0.068587,0.532231
5.23,79.13,40.00,0.068604,0.534192
5.24,79.18,40.00,0.068627,0.536157
5.25,79.23,40.00,0.068655,0.538125
5.26,79.28,40.00,0.068689,0.540097
5.27,79.33,40.00,0.068730,0.542072
5.28,79.38,40.00,0.068776,0.544051
5.29,79.44,40.00,0.068829,0.546034
5.30,79.49,40.00,0.068889,0.548020
5.31,79.54,40.00,0.068956,0.550010
5.32,79.59,40.00,0.069030,0.552003
5.33,79.64,40.00,0.069112,0.554000
5.34,79.69,40.00,0.069202,0.556001
5.35,79.74,40.00,0.069301,0.558005
5.36,79.79,40.00,0.069408,0.560013
5.37,79.85,40.00,0.069525,0.562024
5.38,79.90,40.00,0.069650,0.564039
5.39,79.95,40.00,0.069786,0.566058
5.40,80.00,40.00,0.069932,0.568080
